z,potential
0.000000000000000000e+00,-1.000008970013635645e+00
7.216572326611306321e-02,-9.999991283864894109e-01
1.443314465322261264e-01,-9.999917192859244519e-01
2.164971697983392174e-01,-9.999863304907279371e-01
2.886628930644522528e-01,-9.999831333462833038e-01
3.608286163305653993e-01,-9.999806048848177698e-01
4.329943395966784347e-01,-9.999786586165181346e-01
5.051600628627914702e-01,-9.999760897984002472e-01
5.773257861289045056e-01,-9.999731227958588153e-01
6.494915093950176521e-01,-9.999687457891048847e-01
7.216572326611307986e-01,-9.999632869941685875e-01
7.938229559272437230e-01,-9.999573921901606655e-01
8.659886791933568695e-01,-9.999517823791166382e-01
9.381544024594699049e-01,-9.999464628635111874e-01
1.010320125725582940e+00,-9.999419458432170504e-01
1.082485848991695976e+00,-9.999376507121046087e-01
1.154651572257809011e+00,-9.999350028558043890e-01
1.226817295523922269e+00,-9.999350855691666595e-01
1.298983018790035304e+00,-9.999417019204467350e-01
1.371148742056148340e+00,-9.999580587164915713e-01
1.443314465322261597e+00,-9.999893101928232220e-01
1.515480188588374411e+00,-1.000036573870883849e+00
1.587645911854487446e+00,-1.000101500267747134e+00
1.659811635120600481e+00,-1.000181502432567537e+00
1.731977358386713739e+00,-1.000272377877404750e+00
1.804143081652826774e+00,-1.000369000910752648e+00
1.876308804918939810e+00,-1.000465604814435583e+00
1.948474528185053067e+00,-1.000557086478058411e+00
2.020640251451165881e+00,-1.000639870998541126e+00
2.092805974717279138e+00,-1.000710613195028076e+00
2.164971697983391952e+00,-1.000766333921378370e+00
2.237137421249505209e+00,-1.000806163175805397e+00
2.309303144515618023e+00,-1.000829066896423925e+00
2.381468867781731280e+00,-1.000835059317685349e+00
2.453634591047844538e+00,-1.000825005871206042e+00
2.525800314313957351e+00,-1.000800198093615423e+00
2.597966037580070608e+00,-1.000762428964327100e+00
2.670131760846183866e+00,-1.000713889903716680e+00
2.742297484112296679e+00,-1.000657502066522930e+00
2.814463207378409937e+00,-1.000596089892602292e+00
2.886628930644523194e+00,-1.000532911858964535e+00
2.958794653910635564e+00,-1.000470904681798556e+00
3.030960377176748821e+00,-1.000412347188525564e+00
3.103126100442861635e+00,-1.000360259878767755e+00
3.175291823708974892e+00,-1.000314934733706362e+00
3.247457546975088150e+00,-1.000278263799982748e+00
3.319623270241200963e+00,-1.000250513883746750e+00
3.391788993507314220e+00,-1.000231986752400326e+00
3.463954716773427478e+00,-1.000224175273487504e+00
3.536120440039540291e+00,-1.000230363666833711e+00
3.608286163305653549e+00,-1.000249850203492441e+00
3.680451886571766806e+00,-1.000282885679361522e+00
3.752617609837879620e+00,-1.000326671613501972e+00
3.824783333103992877e+00,-1.000376106724104375e+00
3.896949056370106135e+00,-1.000425187977934449e+00
3.969114779636218948e+00,-1.000471933245459688e+00
4.041280502902331762e+00,-1.000513891319949167e+00
4.113446226168444575e+00,-1.000552879307101239e+00
4.185611949434558277e+00,-1.000590706414788311e+00
4.257777672700671090e+00,-1.000629046277776935e+00
4.329943395966783903e+00,-1.000668794458308586e+00
4.402109119232897605e+00,-1.000712072376116923e+00
4.474274842499010418e+00,-1.000758435547067116e+00
4.546440565765124120e+00,-1.000807014291617003e+00
4.618606289031236045e+00,-1.000858040988781728e+00
4.690772012297348859e+00,-1.000909956097225439e+00
4.762937735563462560e+00,-1.000961814067506062e+00
4.835103458829575374e+00,-1.001011809451041179e+00
4.907269182095689075e+00,-1.001058529259179597e+00
4.979434905361801889e+00,-1.001099905104228638e+00
5.051600628627914702e+00,-1.001134477147421986e+00
5.123766351894027515e+00,-1.001160525453081540e+00
5.195932075160141217e+00,-1.001176760226681894e+00
5.268097798426254030e+00,-1.001182849787040752e+00
5.340263521692367732e+00,-1.001178588458847551e+00
5.412429244958479657e+00,-1.001165358930038218e+00
5.484594968224593359e+00,-1.001146201097819155e+00
5.556760691490706172e+00,-1.001124321281237073e+00
5.628926414756819874e+00,-1.001106034687667901e+00
5.701092138022932687e+00,-1.001093379390683991e+00
5.773257861289046389e+00,-1.001089682535653447e+00
5.845423584555158314e+00,-1.001091967578866981e+00
5.917589307821271127e+00,-1.001095391434319914e+00
5.989755031087384829e+00,-1.001092760982490448e+00
6.061920754353497642e+00,-1.001078172410816869e+00
6.134086477619611344e+00,-1.001052148504790296e+00
6.206252200885723269e+00,-1.001021936537196177e+00
6.278417924151836971e+00,-1.000994524749652559e+00
6.350583647417949784e+00,-1.000980380180034768e+00
6.422749370684063486e+00,-1.000984936745534570e+00
6.494915093950176299e+00,-1.001009091454575728e+00
6.567080817216290001e+00,-1.001051150644823640e+00
6.639246540482401926e+00,-1.001105798215017995e+00
6.711412263748515628e+00,-1.001169314785400166e+00
6.783577987014628441e+00,-1.001237126525208021e+00
6.855743710280742143e+00,-1.001305622999018263e+00
6.927909433546854956e+00,-1.001373017782824393e+00
7.000075156812967769e+00,-1.001437517879811612e+00
7.072240880079080583e+00,-1.001498345201365270e+00
7.144406603345193396e+00,-1.001554571318359121e+00
7.216572326611307098e+00,-1.001605697822189667e+00
7.288738049877419911e+00,-1.001650771415879992e+00
7.360903773143533613e+00,-1.001688889820295802e+00
7.433069496409645538e+00,-1.001718770029430772e+00
7.505235219675759240e+00,-1.001739077025497693e+00
7.577400942941872053e+00,-1.001748639674037156e+00
7.649566666207985755e+00,-1.001745726799891267e+00
7.721732389474098568e+00,-1.001730243581706370e+00
7.793898112740212270e+00,-1.001702556773999220e+00
7.866063836006324195e+00,-1.001663985289245273e+00
7.938229559272437896e+00,-1.001618172465265522e+00
8.010395282538551598e+00,-1.001570021004524191e+00
8.082561005804663523e+00,-1.001523986382534259e+00
8.154726729070777225e+00,-1.001485680329203820e+00
8.226892452336889150e+00,-1.001456415629278007e+00
8.299058175603002852e+00,-1.001432777184660061e+00
8.371223898869116553e+00,-1.001409647193785224e+00
8.443389622135228478e+00,-1.001380029822991791e+00
8.515555345401342180e+00,-1.001339880535120130e+00
8.587721068667454105e+00,-1.001291399996720122e+00
8.659886791933567807e+00,-1.001239307597718620e+00
8.732052515199681508e+00,-1.001190112719204439e+00
8.804218238465795210e+00,-1.001150237997241899e+00
8.876383961731907135e+00,-1.001117727627640397e+00
8.948549684998020837e+00,-1.001091120456588213e+00
9.020715408264134538e+00,-1.001065256954874139e+00
9.092881131530248240e+00,-1.001035964047050975e+00
9.165046854796360165e+00,-1.000999723708915656e+00
9.237212578062472090e+00,-1.000954970073983263e+00
9.309378301328585792e+00,-1.000902654164093741e+00
9.381544024594697717e+00,-1.000843945522465583e+00
9.453709747860811419e+00,-1.000781573576647876e+00
9.525875471126925120e+00,-1.000718334625774419e+00
9.598041194393038822e+00,-1.000657346047596263e+00
9.670206917659150747e+00,-1.000601548247103345e+00
9.742372640925264449e+00,-1.000553776360839198e+00
9.814538364191378150e+00,-1.000516415355620303e+00
9.886704087457491852e+00,-1.000491447707646309e+00
9.958869810723603777e+00,-1.000479941378339177e+00
1.003103553398971570e+01,-1.000482444055626585e+00
1.010320125725582940e+01,-1.000498245262680497e+00
1.017536698052194311e+01,-1.000526201345228960e+00
1.024753270378805503e+01,-1.000562375049038000e+00
1.031969842705416873e+01,-1.000602533862126053e+00
1.039186415032028243e+01,-1.000640417442887786e+00
1.046402987358639436e+01,-1.000669451929762088e+00
1.053619559685250806e+01,-1.000683272065556739e+00
1.060836132011862176e+01,-1.000679673353976895e+00
1.068052704338473546e+01,-1.000660438982922118e+00
1.075269276665084739e+01,-1.000632210129581479e+00
1.082485848991695931e+01,-1.000603731301254351e+00
1.089702421318307302e+01,-1.000583635317630060e+00
1.096918993644918672e+01,-1.000572903187017193e+00
1.104135565971529864e+01,-1.000569390664939107e+00
1.111352138298141234e+01,-1.000566015299195977e+00
1.118568710624752605e+01,-1.000555159132284766e+00
1.125785282951363975e+01,-1.000532819643991544e+00
1.133001855277975167e+01,-1.000501066809567075e+00
1.140218427604586537e+01,-1.000464592075951398e+00
1.147434999931197908e+01,-1.000428926421287779e+00
1.154651572257809278e+01,-1.000398844593712866e+00
1.161868144584420293e+01,-1.000379975559577916e+00
1.169084716911031663e+01,-1.000373092847894885e+00
1.176301289237643033e+01,-1.000379949649214284e+00
1.183517861564254225e+01,-1.000399658717934237e+00
1.190734433890865596e+01,-1.000430992492194360e+00
1.197951006217476966e+01,-1.000471763415735404e+00
1.205167578544088336e+01,-1.000519191172149380e+00
1.212384150870699528e+01,-1.000570107257832797e+00
1.219600723197310899e+01,-1.000621130472022280e+00
1.226817295523922269e+01,-1.000668758594732255e+00
1.234033867850533639e+01,-1.000709529389663066e+00
1.241250440177144654e+01,-1.000740538096280607e+00
1.248467012503756024e+01,-1.000759352264498636e+00
1.255683584830367394e+01,-1.000764676892051508e+00
1.262900157156978764e+01,-1.000756302058797287e+00
1.270116729483589957e+01,-1.000736158546718269e+00
1.277333301810201327e+01,-1.000708359202058917e+00
1.284549874136812697e+01,-1.000678415433169599e+00
1.291766446463423890e+01,-1.000651968613177178e+00
1.298983018790035260e+01,-1.000635663341924442e+00
1.306199591116646630e+01,-1.000632056140273729e+00
1.313416163443258000e+01,-1.000637784533279673e+00
1.320632735769869193e+01,-1.000649898013134642e+00
1.327849308096480385e+01,-1.000658004171835591e+00
1.335065880423091755e+01,-1.000655976791857915e+00
1.342282452749703126e+01,-1.000641543376809661e+00
1.349499025076314318e+01,-1.000612684352061299e+00
1.356715597402925688e+01,-1.000572805183496783e+00
1.363932169729537058e+01,-1.000523418578718848e+00
1.371148742056148429e+01,-1.000462114002335756e+00
1.378365314382759621e+01,-1.000389114393009038e+00
1.385581886709370991e+01,-1.000302399437989376e+00
1.392798459035982361e+01,-1.000202531259365202e+00
1.400015031362593554e+01,-1.000091640745806032e+00
1.407231603689204746e+01,-9.999720674221583838e-01
1.414448176015816117e+01,-9.998494063602281212e-01
1.421664748342427487e+01,-9.997298209009767289e-01
1.428881320669038679e+01,-9.996186095217850509e-01
1.436097892995650049e+01,-9.995215041570960635e-01
1.443314465322261420e+01,-9.994431060142406897e-01
1.450531037648872790e+01,-9.993873491294785749e-01
1.457747609975483982e+01,-9.993566814660336250e-01
1.464964182302095352e+01,-9.993523908189374527e-01
1.472180754628706723e+01,-9.993744646128298603e-01
1.479397326955318093e+01,-9.994207496665887813e-01
1.486613899281929108e+01,-9.994891259839093767e-01
1.493830471608540478e+01,-9.995742186632106119e-01
1.501047043935151848e+01,-9.996719058531399194e-01
1.508263616261763040e+01,-9.997747456286857348e-01
1.515480188588374411e+01,-9.998776565659359683e-01
1.522696760914985781e+01,-9.999729830322933166e-01
1.529913333241597151e+01,-1.000055564645929040e+00
1.537129905568208343e+01,-1.000121199028130237e+00
1.544346477894819714e+01,-1.000168310691016194e+00
1.551563050221431084e+01,-1.000196354224117679e+00
1.558779622548042454e+01,-1.000207990613694031e+00
1.565996194874653469e+01,-1.000208528411796749e+00
1.573212767201264839e+01,-1.000204096273856091e+00
1.580429339527876209e+01,-1.000201601800682738e+00
1.587645911854487579e+01,-1.000208385752668017e+00
1.594862484181098772e+01,-1.000226994363693445e+00
1.602079056507710320e+01,-1.000260529179285207e+00
1.609295628834321334e+01,-1.000307545932201059e+00
1.616512201160932705e+01,-1.000364244638081823e+00
1.623728773487544075e+01,-1.000427228644397815e+00
1.630945345814155445e+01,-1.000491916175399121e+00
1.638161918140766815e+01,-1.000553657504316130e+00
1.645378490467377830e+01,-1.000609536040292902e+00
1.652595062793989200e+01,-1.000655917155484964e+00
1.659811635120600570e+01,-1.000691062569161849e+00
1.667028207447211940e+01,-1.000713581452032708e+00
1.674244779773823311e+01,-1.000722434428840790e+00
1.681461352100434681e+01,-1.000718216918607073e+00
1.688677924427045696e+01,-1.000701142098565422e+00
1.695894496753657066e+01,-1.000672500276569066e+00
1.703111069080268436e+01,-1.000633992705157516e+00
1.710327641406879806e+01,-1.000587418419235819e+00
1.717544213733490821e+01,-1.000535227571407448e+00
1.724760786060102546e+01,-1.000479633913661903e+00
1.731977358386713561e+01,-1.000422903598077173e+00
1.739193930713324932e+01,-1.000368100241884717e+00
1.746410503039936302e+01,-1.000316140916001739e+00
1.753627075366547672e+01,-1.000267802906666503e+00
1.760843647693159042e+01,-1.000222761812592287e+00
1.768060220019770057e+01,-1.000179282926100033e+00
1.775276792346381427e+01,-1.000136431397207204e+00
1.782493364672992797e+01,-1.000092465786185603e+00
1.789709936999604167e+01,-1.000051052953615072e+00
1.796926509326215182e+01,-1.000018934365740186e+00
1.804143081652826908e+01,-1.000003440053323533e+00
1.811359653979437923e+01,-1.000010950048359826e+00
1.818576226306049648e+01,-1.000038030518301646e+00
1.825792798632660663e+01,-1.000072833401929318e+00
1.833009370959272033e+01,-1.000096342461071597e+00
1.840225943285883403e+01,-1.000088703757800790e+00
1.847442515612494418e+01,-1.000036325389540126e+00
1.854659087939105788e+01,-9.999332435932882790e-01
1.861875660265717158e+01,-9.997825496720680327e-01
1.869092232592328529e+01,-9.995917891622568829e-01
1.876308804918939543e+01,-9.993742240541031441e-01
1.883525377245551269e+01,-9.991398669090442164e-01
1.890741949572162284e+01,-9.989010085789679083e-01
1.897958521898774009e+01,-9.986665416664536332e-01
1.905175094225385024e+01,-9.984442828910312651e-01
1.912391666551996394e+01,-9.982398246028729716e-01
1.919608238878607764e+01,-9.980576234605093022e-01
1.926824811205218779e+01,-9.978992268989248515e-01
1.934041383531830149e+01,-9.977648909011235245e-01
1.941257955858441520e+01,-9.976528525538488346e-01
1.948474528185052890e+01,-9.975599138344343197e-01
1.955691100511664260e+01,-9.974814132734974859e-01
1.962907672838275630e+01,-9.974122108014867871e-01
1.970124245164886645e+01,-9.973489697731520165e-01
1.977340817491498370e+01,-9.972889782957208293e-01
1.984557389818109385e+01,-9.972361109881757724e-01
1.991773962144720755e+01,-9.971958339460901266e-01
1.998990534471332126e+01,-9.971794921838131875e-01
2.006207106797943140e+01,-9.972018802073049359e-01
2.013423679124554511e+01,-9.972728083249398079e-01
2.020640251451165881e+01,-9.973950639120465755e-01
2.027856823777777251e+01,-9.975605366155635423e-01
2.035073396104388621e+01,-9.977516528099408255e-01
2.042289968430999991e+01,-9.979472890277879538e-01
2.049506540757611006e+01,-9.981331788168792407e-01
2.056723113084222732e+01,-9.983079888280189662e-01
2.063939685410833746e+01,-9.984808979544904650e-01
2.071156257737445117e+01,-9.986623703529657892e-01
2.078372830064056487e+01,-9.988501928248589845e-01
2.085589402390667502e+01,-9.990248625938782379e-01
2.092805974717278872e+01,-9.991452104901474840e-01
2.100022547043890242e+01,-9.991575647635501101e-01
2.107239119370501612e+01,-9.990052303462451100e-01
2.114455691697112982e+01,-9.986362197502154370e-01
2.121672264023724352e+01,-9.980086211753292913e-01
2.128888836350335367e+01,-9.970935498228635785e-01
2.136105408676947093e+01,-9.958735879681195335e-01
2.143321981003558108e+01,-9.943418742999222681e-01
2.150538553330169478e+01,-9.925016857239394863e-01
2.157755125656780848e+01,-9.903636231243010402e-01
2.164971697983391863e+01,-9.879445805881066356e-01
2.172188270310003588e+01,-9.852662222151076232e-01
2.179404842636614603e+01,-9.823530918249292476e-01
2.186621414963225973e+01,-9.792319874415308378e-01
2.193837987289837343e+01,-9.759306998501361408e-01
2.201054559616448714e+01,-9.724777783631078920e-01
2.208271131943059729e+01,-9.689016791288159736e-01
2.215487704269671454e+01,-9.652313864845670777e-01
2.222704276596282469e+01,-9.614953611587900850e-01
2.229920848922893839e+01,-9.577218816032295745e-01
2.237137421249505209e+01,-9.539379387686136580e-01
2.244353993576116224e+01,-9.501687529323555870e-01
2.251570565902727949e+01,-9.464349432322712863e-01
2.258787138229338964e+01,-9.427529047853155930e-01
2.266003710555950335e+01,-9.391323476225903466e-01
2.273220282882561705e+01,-9.355756940241773956e-01
2.280436855209173075e+01,-9.320793020439018806e-01
2.287653427535784090e+01,-9.286353474989718082e-01
2.294869999862395815e+01,-9.252352137259125531e-01
2.302086572189006830e+01,-9.218756039402986602e-01
2.309303144515618555e+01,-9.185613543819507454e-01
2.316519716842229570e+01,-9.153065454175226545e-01
2.323736289168840585e+01,-9.121243237840410689e-01
2.330952861495452311e+01,-9.090274056853546725e-01
2.338169433822063326e+01,-9.060330475506636061e-01
2.345386006148674696e+01,-9.031691967000119448e-01
2.352602578475286066e+01,-9.004625540011391704e-01
2.359819150801897436e+01,-8.979307606767317207e-01
2.367035723128508451e+01,-8.955627207150277380e-01
2.374252295455120176e+01,-8.933238483411661823e-01
2.381468867781731191e+01,-8.911661400182631088e-01
2.388685440108342917e+01,-8.890353935461041690e-01
2.395902012434953932e+01,-8.868821759894551793e-01
2.403118584761564946e+01,-8.846544564343203909e-01
2.410335157088176672e+01,-8.823021923716484194e-01
2.417551729414787687e+01,-8.797735582419967670e-01
2.424768301741399057e+01,-8.770239613307097004e-01
2.431984874068010427e+01,-8.740273389637689405e-01
2.439201446394621797e+01,-8.707935792586638524e-01
2.446418018721232812e+01,-8.673666723709725357e-01
2.453634591047844538e+01,-8.638089255627562357e-01
2.460851163374455552e+01,-8.601676585956808951e-01
2.468067735701067278e+01,-8.564656248351316670e-01
2.475284308027678293e+01,-8.526967953608260986e-01
2.482500880354289308e+01,-8.488394634810459971e-01
2.489717452680901033e+01,-8.448668160245211833e-01
2.496934025007512048e+01,-8.407542800231440072e-01
2.504150597334123418e+01,-8.364812655530439178e-01
2.511367169660734788e+01,-8.320351358557930288e-01
2.518583741987346158e+01,-8.274099937397136895e-01
2.525800314313957529e+01,-8.226070807950112140e-01
2.533016886640568899e+01,-8.176352338412171683e-01
2.540233458967179914e+01,-8.125103311274057827e-01
2.547450031293791639e+01,-8.072543052007896680e-01
2.554666603620402654e+01,-8.018947008842598478e-01
2.561883175947013669e+01,-7.964626418059880253e-01
2.569099748273625394e+01,-7.909913360753161315e-01
2.576316320600236409e+01,-7.855152575751801480e-01
2.583532892926847779e+01,-7.800687601634128665e-01
2.590749465253459149e+01,-7.746852626493511140e-01
2.597966037580070520e+01,-7.693959525879661143e-01
2.605182609906681890e+01,-7.642286371750687257e-01
2.612399182233293260e+01,-7.592065716214831950e-01
2.619615754559904275e+01,-7.543472993545083938e-01
2.626832326886516000e+01,-7.496610440294919631e-01
2.634048899213127015e+01,-7.451516762751219103e-01
2.641265471539738385e+01,-7.408158947265979233e-01
2.648482043866349755e+01,-7.366425650181742668e-01
2.655698616192960770e+01,-7.326139308257179072e-01
2.662915188519572141e+01,-7.287050960554991574e-01
2.670131760846183511e+01,-7.248870688534814199e-01
2.677348333172794881e+01,-7.211332849790802468e-01
2.684564905499406251e+01,-7.174293867605587849e-01
2.691781477826017621e+01,-7.137887179801408744e-01
2.698998050152628636e+01,-7.102579499353615100e-01
2.706214622479240361e+01,-7.069008809947734395e-01
2.713431194805851376e+01,-7.037708820225500039e-01
2.720647767132462747e+01,-7.008846805843642613e-01
2.727864339459074117e+01,-6.982254654934003657e-01
2.735080911785685132e+01,-6.957513361890445003e-01
2.742297484112296857e+01,-6.934101964847351196e-01
2.749514056438907872e+01,-6.911494712671452101e-01
2.756730628765519242e+01,-6.889157282518042491e-01
2.763947201092130612e+01,-6.866559864209128561e-01
2.771163773418741982e+01,-6.843144285643227853e-01
2.778380345745352997e+01,-6.818386973099731518e-01
2.785596918071964723e+01,-6.791763537234198900e-01
2.792813490398575738e+01,-6.762803413537628039e-01
2.800030062725187108e+01,-6.731295273237313248e-01
2.807246635051798478e+01,-6.697473853848586733e-01
2.814463207378409493e+01,-6.661945808670239888e-01
